
BANK       1    4501     450  CONST  1000.00    2.00     0.0     0.0         STD
     440     470     477     464     443     495     503     497     455     451
     472     521     464     434     468     444     464     484     496     449
     496     490     478     451     478     472     503     479     489     484
     474     516     467     490     486     460     484     486     481     472
     416     449     470     454     474     485     490     506     494     480
     467     520     508     489     446     542     482     510     485     487
     497     497     491     522     486     495     488     501     442     533
     502     545     493     523     492     465     513     542     522     483
     517     512     510     541     479     502     448     507     534     473
     489     515     476     509     497     529     517     491     508     506
     523     550     520     483     494     462     506     493     499     501
     525     542     522     526     508     511     494     540     528     500
     531     529     484     522     541     513     529     514     491     498
     511     477     535     544     538     520     495     485     502     581
     532     513     548     560     573     549     563     557     507     509
     550     494     494     552     527     520     514     523     517     527
     520     547     540     493     544     513     537     530     536     487
     567     554     494     510     526     571     524     512     511     510
     538     521     502     536     536     529     520     551     533     533
     545     524     513     507     566     565     580     511     487     534
     500     533     539     511     448     545     531     544     505     503
     488     554     514     578     514     562     535     550     516     536
     515     529     569     532     510     541     566     522     560     525
     535     545     552     557     546     571     547     541     559     618
     602     598     559     564     637     542     639     632     657     661
     699     678     606     588     631     605     602     607     602     630
     596     586     585     586     583     556     579     575     592     582
     601     589     586     578     588     557     564     609     548     598
     545     591     556     581     555     530     569     566     533     560
     566     589     561     580     558     579     566     573     539     560
     576     566     551     575     574     569     618     570     540     566
     570     591     591     549     536     604     580     537     588     572
     543     560     518     568     602     517     572     544     563     588
     569     522     572     558     562     555     583     533     612     580
     583     568     559     580     583     551     548     571     583     591
     593     549     551     579     558     581     553     572     602     528
     533     564     573     601     556     600     580     612     583     576
     600     585     589     603     582     628     621     616     682     715
     735     725     716     683     698     641     594     568     525     573
     595     562     567     539     533     570     602     550     540     554
     552     535     564     536     562     548     526     537     571     580
     565     560     527     569     575     503     556     526     555     542
     538     554     539     543     581     540     577     590     559     549
     548     555     526     493     562     534     569     545     572     522
     558     565     524     562     576     574     553     545     571     555
     559     510     514     576     547     561     515     552     558     561
     566     557     540     545     550     540     553     536     521     512
     563     550     554     552     576     516     542     518     531     531
     498     583     529     550     520     544     518     564     566     507
     576     530     553     547     538     519     560     531     516     583
     533     551     520     527     535     554     571     584     535     577
     503     554     537     533     524     551     555     520     541     529
     564     537     559     561     570     548     529     550     520     531
     542     543     567     543     569     560     568     526     539     541
     528     511     515     522     569     539     535     524     565     590
     544     537     548     543     506     567     532     561     540     564
     572     570     600     597     653     656     614     611     664     604
     595     580     567     569     542     519     529     566     562     542
     545     521     541     543     490     548     502     539     559     582
     548     570     563     557     539     520     540     567     509     534
     515     551     526     550     548     560     515     579     520     524
     528     545     538     553     535     562     517     535     570     538
     542     520     516     574     525     536     542     559     569     543
     533     538     552     563     539     554     489     514     521     583
     528     575     563     562     557     576     539     502     591     582
     594     609     592     608     635     599     625     718     741     862
     918     980    1052    1103     958     902     819     739     725     682
     618     563     519     553     577     558     539     590     553     543
     547     561     551     587     564     623     592     521     624     610
     666     747     715     770     863     830     802     753     709     630
     612     620     583     547     573     569     582     534     559     555
     548     547     509     529     594     560     512     561     505     532
     530     556     535     530     537     533     542     548     546     531
     540     492     523     549     523     599     543     596     540     557
     522     562     546     543     564     584     576     576     621     590
     577     549     572     576     533     568     595     543     562     584
     516     565     557     555     554     553     572     567     502     511
     542     529     545     542     580     513     523     549     539     549
     532     537     546     603     603     523     566     508     572     552
     514     530     489     543     577     545     569     566     484     509
     554     560     549     519     522     533     547     523     538     534
     525     538     556     563     508     563     536     517     579     546
     536     584     564     561     534     552     552     532     518     577
     597     545     550     510     524     576     558     556     553     520
     540     547     556     548     550     600     545     600     550     566
     561     586     552     530     533     498     529     561     571     548
     549     540     514     566     532     565     577     557     565     580
     585     558     570     607     612     646     611     622     671     645
     676     725     852     841     980    1138    1291    1623    1916    2289
    2429    2406    2173    2032    1726    1462    1248    1022     863     752
     726     635     675     671     628     614     571     633     541     591
     561     593     543     583     569     535     584     551     559     552
     595     550     543     534     570     518     544     562     538     542
     592     533     531     515     603     533     527     555     508     528
     574     561     552     529     567     565     552     578     544     561
     571     612     534     556     556     598     576     551     563     586
     571     570     579     573     594     613     638     615     601     672
     662     650     672     667     674     695     715     741     767     784
     770     854    1049    1095    1264    1346    1733    1900    2493    3063
    3901    4567    5011    4985    4606    4123    3569    2845    2326    1859
    1478    1258    1159     952     904     847     852     789     766     756
     781     748     742     772     871     904     946     962    1013     932
     858     867     773     757     662     692     642     651     695     680
     672     681     700     698     676     665     646     633     588     573
     558     572     636     564     575     572     552     550     545     592
     552     585     537     535     588     568     521     523     541     620
     537     533     558     538     540     533     555     509     498     555
     533     537     502     498     559     527     508     585     540     517
     522     530     517     507     559     531     518     564     537     566
     549     547     534     559     568     525     532     534     522     525
     545     574     513     580     549     548     523     516     561     560
     540     551     591     548     610     620     684     695     715     818
     748     721     702     639     650     594     576     525     524     526
     546     537     521     550     526     555     514     545     496     525
     526     517     549     543     529     522     557     531     557     545
     529     555     552     540     510     508     536     527     544     548
     513     553     495     523     535     558     523     495     559     489
     508     486     505     549     562     570     538     523     524     546
     511     546     548     551     544     590     531     538     561     592
     584     621     585     676     709     715     760     952    1134    1377
    1514    1791    1722    1699    1528    1486    1270    1146     999     895
     740     708     670     595     649     579     559     582     553     574
     532     547     564     530     523     510     492     513     489     514
     535     518     525     512     535     481     488     516     521     559
     529     483     526     533     535     483     506     527     533     576
     504     587     497     539     534     513     530     513     480     494
     559     517     516     539     595     584     589     526     586     535
     601     591     558     609     609     602     582     623     712     790
     789     872    1082    1249    1366    1451    1363    1173    1083    1027
    1018     809     836     666     618     578     562     527     551     534
     506     545     573     529     523     558     536     532     537     528
     504     521     541     513     513     516     482     502     534     480
     551     517     505     533     528     473     542     505     533     529
     527     549     560     568     503     497     563     495     534     468
     501     525     513     480     502     495     529     500     524     514
     501     524     483     448     521     527     515     530     543     495
     544     541     519     498     512     514     541     487     532     546
     532     520     507     521     513     533     533     504     530     491
     510     503     544     487     527     513     540     505     517     520
     492     520     507     495     505     508     499     517     508     504
     513     522     476     549     545     477     519     492     502     518
     523     516     556     459     510     554     528     467     557     523
     525     550     537     562     600     631     634     701     752     745
     720     712     696     732     629     605     550     622     622     540
     540     567     548     611     555     569     564     599     610     626
     605     577     577     647     548     577     581     536     519     563
     517     533     506     543     512     510     557     528     522     556
     513     548     520     496     496     504     565     498     525     518
     519     575     504     524     504     504     501     502     482     514
     504     519     528     507     507     547     589     538     542     588
     534     538     543     592     486     574     495     521     492     514
     517     540     469     535     538     525     519     504     495     527
     512     487     530     500     542     509     557     505     503     493
     517     513     485     542     518     546     495     502     483     488
     498     553     514     527     542     504     532     527     490     493
     545     479     509     560     528     501     524     502     502     522
     523     522     525     500     530     508     509     541     460     514
     506     531     506     515     490     553     504     550     501     505
     559     520     524     482     522     520     523     511     547     538
     518     585     507     516     579     578     600     625     675     665
     606     612     608     592     574     568     505     512     518     503
     533     528     521     528     505     513     543     531     463     492
     547     536     490     515     507     511     523     521     506     520
     512     497     489     507     500     467     535     514     473     496
     514     502     498     489     517     468     532     542     522     527
     534     565     564     597     591     611     628     558     602     590
     610     634     665     618     676     724     754     888     905    1000
    1089    1059    1061    1100     968     947     878     834     813     744
     691     642     646     627     595     567     535     502     583     574
     563     570     534     569     587     555     565     593     591     603
     552     583     558     538     526     534     504     552     501     489
     558     513     518     489     532     553     475     499     499     463
     542     513     499     523     555     501     519     559     519     554
     539     511     589     525     520     609     567     635     633     692
     770     840     954    1012    1005     952     957     856     891     790
     809     728     669     648     596     569     580     539     541     519
     526     550     518     493     566     557     471     509     504     509
     493     492     503     504     469     528     519     504     486     472
     500     537     509     491     518     532     502     492     532     493
     512     483     507     528     493     486     489     525     550     543
     515     514     496     480     551     519     545     571     599     632
     652     696     750     720     712     683     615     671     634     648
     662     635     616     603     625     591     586     570     557     562
     584     521     545     536     521     533     493     503     527     528
     459     522     486     518     537     525     501     522     523     512
     503     531     510     555     552     514     559     537     569     576
     600     614     613     591     602     635     556     560     573     638
     578     570     504     568     599     634     625     604     600     644
     587     601     584     619     548     593     575     578     539     543
     525     479     510     503     502     526     537     511     496     517
     507     485     531     508     510     489     540     503     527     522
     541     539     517     532     546     523     534     541     548     530
     559     595     619     637     704     775     909     900    1008     999
     939     905     828     829     820     806     775     755     689     620
     657     689     697     716     780     782     769     770     712     668
     643     636     664     587     537     593     524     551     501     565
     515     544     547     571     532     497     530     524     512     456
     533     533     521     518     488     549     477     517     510     524
     485     563     535     523     517     565     589     613     670     704
     773     819     897     984     952     899     827     811     818     768
     786     868     815     793     810     857     889    1002     947     936
     894     888     820     819     726     783     722     680     659     599
     581     576     580     536     574     501     519     522     516     509
     519     492     518     519     504     504     510     497     503     510
     499     506     523     496     504     501     471     469     513     487
     515     480     489     523     471     517     455     497     516     488
     524     495     473     520     487     458     498     499     534     488
     512     484     484     469     519     530     514     443     506     478
     546     502     522     504     479     502     499     542     501     473
     530     456     468     494     493     507     474     526     496     499
     520     507     505     493     481     465     510     489     460     509
     463     506     465     457     478     545     476     510     487     477
     463     545     507     510     467     499     490     495     500     513
     456     478     476     475     452     482     479     472     483     470
     504     518     494     477     524     503     529     490     516     485
     501     487     487     475     429     491     512     476     516     456
     476     496     497     508     472     457     497     470     480     479
     489     494     490     526     474     465     489     452     490     447
     505     464     487     494     496     484     504     504     495     511
     513     533     499     519     537     495     508     551     541     482
     488     551     525     506     494     495     568     496     462     493
     449     480     470     507     488     434     559     483     495     484
     530     508     491     477     486     501     532     513     536     553
     491     504     522     455     550     500     547     584     580     513
     566     495     518     541     529     491     537     531     509     520
     515     471     485     509     502     493     532     510     485     462
     505     461     504     487     533     502     480     503     514     514
     507     495     460     490     503     454     457     494     488     491
     523     507     498     512     495     509     492     482     502     470
     482     506     502     475     481     450     490     491     479     494
     505     433     489     511     463     512     524     463     530     487
     478     514     477     488     475     489     528     499     478     510
     508     494     451     474     496     477     501     477     512     494
     518     484     480     478     494     470     477     467     481     485
     456     484     520     469     499     504     495     493     494     503
     498     508     513     530     529     519     482     550     541     514
     498     541     486     505     531     494     504     496     522     537
     558     528     528     568     506     487     506     533     499     520
     477     515     505     505     549     544     561     593     568     586
     560     535     529     516     500     517     505     515     516     503
     497     526     501     499     480     504     466     482     490     474
     466     478     474     482     513     531     523     522     494     486
     500     500     485     562     538     563     567     600     646     688
     684     647     678     629     670     665     609     613     586     569
     603     580     579     538     525     465     510     554     505     478
     545     487     500     506     538     484     481     509     501     517
     495     514     499     511     554     485     573     566     658     617
     645     720     742     790     795     769     775     796     715     701
     705     710     704     665     697     712     712     722     686     615
     672     612     603     626     584     598     607     568     586     591
     500     561     522     530     550     503     520     491     529     492
     508     524     521     506     501     519     522     580     515     541
     587     569     615     665     680     701     781     812     830     852
     868     775     744     734     738     754     670     687     671     628
     656     602     585     559     531     575     494     528     525     523
     468     512     522     486     501     515     536     508     501     497
     504     519     519     507     500     487     509     501     513     488
     469     474     501     472     499     445     518     512     541     469
     473     443     485     498     509     520     494     466     514     527
     497     521     512     460     531     514     504     531     538     572
     564     544     556     522     495     575     533     580     537     564
     541     540     511     515     520     501     467     504     514     518
     489     508     486     425     484     477     486     487     493     499
     483     510     470     541     512     534     535     498     560     525
     651     654     703     650     684     626     670     603     587     566
     581     590     613     630     564     589     565     589     517     558
     588     537     548     544     510     550     508     540     525     467
     510     473     503     490     526     496     466     512     459     498
     487     505     457     471     458     502     490     450     447     490
     512     467     451     448     512     505     508     518     540     491
     497     466     445     498     463     459     464     471     491     493
     507     485     446     480     452     488     502     438     487     500
     462     471     498     487     483     482     500     459     508     451
     443     473     461     451     452     467     449     469     471     452
     465     489     503     478     480     495     474     515     465     443
     498     491     480     491     479     483     500     436     479     473
     453     512     462     528     555     534     596     490     557     498
     539     489     500     472     506     531     491     561     497     512
     510     506     465     536     481     434     469     499     499     495
     489     476     493     437     484     510     521     520     503     483
     474     515     502     469     514     500     547     559     543     496
     518     529     518     512     530     492     495     522     485     511
     497     509     501     458     511     455     509     441     439     490
     482     525     473     513     474     488     418     463     513     464
     496     494     491     466     469     504     473     481     478     450
     500     458     474     483     480     473     486     464     477     438
     469     510     419     506     505     522     491     501     508     501
     528     570     577     603     580     567     565     523     526     511
     546     542     533     540     543     578     538     540     521     561
     502     497     559     550     532     524     514     470     516     534
     572     514     525     508     531     484     515     469     504     482
     516     536     523     505     565     484     515     530     472     501
     467     486     511     528     536     544     572     537     543     536
     496     526     492     530     516     544     474     494     484     502
     505     489     453     509     451     450     483     442     445     483
     490     506     454     480     461     480     481     462     526     454
     528     487     472     482     507     472     471     491     473     500
     496     470     496     460     509     443     478     487     495     454
     494     495     438     462     477     448     472     504     502     461
     475     514     460     472     464     462     441     478     446     472
     558     502     481     477     475     459     490     480     507     481
     477     515     484     453     476     503     537     506     473     532
     483     509     492     467     469     500     488     518     476     455
     517     478     519     486     468     460     479     454     427     504
     445     462     479     448     461     479     448     460     455     495
     490     469     427     495     433     443     464     522     474     458
     461     440     466     490     476     466     461     488     450     456
     491     494     503     471     522     462     495     457     504     474
     498     519     485     472     496     496     487     452     455     481
     471     457     491     481     484     456     507     471     498     480
     492     455     486     523     458     439     443     532     480     460
     504     478     442     475     492     489     487     481     475     508
     441     524     479     469     476     469     461     475     469     463
     511     539     546     514     518     543     499     462     503     460
     486     497     503     516     522     440     522     490     457     503
     508     494     513     437     477     492     518     482     514     506
     489     491     509     512     512     487     577     594     570     632
     552     603     590     584     605     546     547     550     565     574
     511     550     485     506     541     541     490     485     511     471
     523     470     481     496     489     499     459     492     491     510
     498     508     475     458     465     482     470     520     483     481
     497     482     533     502     491     516     523     527     542     537
     589     552     578     566     601     579     564     610     526     531
     556     576     551     541     554     535     570     543     531     524
     534     516     482     506     512     509     514     520     491     506
     498     488     466     499     465     481     511     475     508     490
     485     483     459     465     462     548     499     487     466     529
     502     559     532     516     565     549     576     554     567     495
     499     539     536     540     491     535     530     497     505     512
     525     492     506     501     496     498     496     501     474     450
     488     470     508     477     448     497     494     446     452     455
     474     534     478     486     437     471     465     495     469     467
     494     446     480     471     479     475     481     499     478     516
     506     499     500     485     531     529     540     517     570     511
     485     490     523     510     499     551     485     482     544     501
     535     476     523     504     510     514     498     474     486     485
     488     492     466     534     520     497     474     488     517     493
     486     490     469     518     511     458     516     454     495     480
     474     522     459     473     407     458     465     475     472     491
     521     532     475     476     489     453     507     474     470     479
     507     495     491     464     492     463     444     486     482     482
     483     458     447     461     459     502     473     477     488     423
     458     477     451     484     457     490     464     437     479     484
     513     484     542     529     518     553     561     531     533     521
     509     498     522     548     531     492     462     487     553     514
     548     514     536     519     489     478     506     481     478     477
     480     497     496     489     469     476     477     469     459     501
     479     453     507     480     511     473     455     476     422     501
     481     457     480     510     484     480     495     505     484     517
     495     519     492     498     486     494     497     478     490     511
     506     498     494     418     494     441     478     508     494     471
     496     477     485     473     469     492     470     466     435     490
     505     460     528     517     473     526     468     479     437     471
     485     539     489     489     472     451     468     502     497     530
     500     449     510     460     444     474     504     475     456     527
     477     434     447     469     489     447     500     458     513     445
     448     506     467     463     481     458     471     483     489     474
     489     448     494     438     450     488     447     481     450     487
     469     482     466     477     473     488     466     464     485     472
     470     481     467     460     497     467     500     463     472     448
     472     489     483     464     491     491     464     445     464     506
     491     502     456     487     477     480     519     478     487     479
     465     488     522     550     517     490     508     519     539     535
     521     495     501     504     499     548     517     514     488     518
     486     509     495     471     466     469     474     527     469     449
     460     482     454     474     505     471     525     490     498     469
     461     449     506     499     470     466     467     484     478     497
     490     469     524     488     456     501     470     473     487     493
     476     522     510     508     530     530     516     540     547     519
     506     476     469     488     475     485     486     485     513     528
     473     467     519     514     487     521     481     508     534     471
     446     484     512     447     511     473     472     500     469     489
     499     477     508     451     486     482     447     450     495     492
     460     496     459     489     520     562     506     518     516     498
     609     509     505     481     489     490     433     474     504     474
     529     555     483     510     481     498     495     506     516     480
     531     492     489     500     449     487     579     457     555     548
     586     558     552     537     586     571     518     554     539     611
     577     535     550     534     558     560     555     545     551     536
     534     554     537     536     527     503     520     498     485     499
     454     479     486     454     454     466     492     491     490     492
     501     478     501     457     487     444     468     461     510     480
     455     505     510     467     481     448     478     482     499     487
     482     432     419     524     507     480     463     459     450     471
     468     462     430     472     480     487     468     478     482     501
     481     453     477     460     472     467     449     441     483     459
     455     466     500     462     488     498     490     463     475     493
     441     505     467     515     479     458     519     505     464     447
     491     469     493     478     506     518     491     502     463     460
     460     464     468     498     458     486     431     467     471     508
     476     478     455     484     452     490     481     462     438     472
     487     472     486     472     453     498     466     493     486     472
     488     488     482     501     470     523     472     506     477     511
     521     493     481     489     469     483     468     498     461     478
     505     518     446     442     430     477     424     480     509     473
     476     456     449     457     496     479     463     437     466     503
     432     444     455     422     437     467     465     447     434     469
     497     482     421     491     473     504     474     460     454     486
     491     510     482     473     496     502     514     485     506     475
     505     468     468     477     464     435     500     501     447     465
     503     485     439     487     487     476     485     488     466     455
     484     469     475     477     499     455     482     531     494     455
     492     499     516     478     491     473     492     505     478     452
     510     458     499     468     471     494     497     475     476     458
     486     439     477     469     441     419     487     457     466     438
     464     514     448     476     457     475     465     422     460     490
     490     501     488     435     465     463     465     493     478     484
     501     486     458     488     463     448     481     469     451     455
     468     526     464     473     467     457     451     495     455     491
     506     462     507     476     438     470     466     450     456     466
     459     427     508     453     480     465     464     541     463     469
     478     479     464     511     478     513     471     515     477     497
     509     516     545     503     476     523     567     491     495     534
     476     517     484     486     466     504     527     481     486     459
     523     469     470     518     507     492     512     468     496     468
     508     451     476     486     468     481     451     451     502     466
     460     495     428     468     436     475     451     493     513     486
     501     516     483     472     486     456     467     460     506     501
     481     485     464     503     462     461     491     475     512     459
     483     475     502     456     478     503     451     463     471     440
     501     494     495     440     488     472     490     451     456     497
     487     500     428     441     477     464     435     483     427     442
     495     477     479     503     511     444     469     433     451     411
     477     493     464     453     418     491     462     466     456     443
     455     489     462     458     477     497     472     474     449     437
     500     485     522     493     505     456     498     459     507     508
     488     520     432     431     491     457     471     511     492     518
     466     497     480     523     511     536     525     529     503     501
     510     504     451     490     477     489     475     478     522     473
     516     485     505     481     502     467     466     493     492     425
     448     487     463     498     491     465     489     477     501     446
     518     519     502     499     514     476     488     500     516     501
     499     486     483     499     509     459     472     497     538     514
     489     542     511     487     502     452     438     452     440     473
     464     505     497     473     483     478     483     494     451     492
     546     454     464     481     500     499     493     483     552     476
     474     491     477     479     488     500     501     467     467     499
     498     478     473     472     486     498     490     474     469     469
     411     464     466     462     464     493     454     434     493     456
     470     452     446     451     439     416     452     465     443     461
     467     481     479     429     454     482     454     518     462     488
     459     475     493     501     490     486     482     442     453     436
     479     469     485     516     461     445     503     456     481     466
     458     463     467     469     498     475     470     417     404     480
     471     503     494     462     472     486     452     534     465     493
     470     474     497     467     478     471     501     528     490     515
     508     510     518     495     520     529     553     528     506     490
     494     523     489     517     508     479     505     496     490     461
     488     504     482     464     470     478     480     527     442     466
     466     461     457     442     496     485     454     463     527     463
     483                                                                        